nu ir raman
400 0.000315659 0.000258409
402 0.000319654 0.00025952
404 0.000323737 0.000260638
406 0.000327911 0.000261764
408 0.00033218 0.000262897
410 0.000336546 0.000264037
412 0.000341012 0.000265184
414 0.000345582 0.00026634
416 0.000350258 0.000267502
418 0.000355044 0.000268673
420 0.000359943 0.000269851
422 0.00036496 0.000271037
424 0.000370097 0.00027223
426 0.00037536 0.000273432
428 0.000380752 0.000274641
430 0.000386278 0.000275859
432 0.000391941 0.000277085
434 0.000397748 0.000278319
436 0.000403702 0.000279561
438 0.000409808 0.000280811
440 0.000416074 0.00028207
442 0.000422502 0.000283337
444 0.000429101 0.000284613
446 0.000435875 0.000285898
448 0.000442832 0.000287191
450 0.000449977 0.000288493
452 0.000457318 0.000289804
454 0.000464862 0.000291124
456 0.000472617 0.000292453
458 0.00048059 0.000293791
460 0.000488791 0.000295138
462 0.000497228 0.000296495
464 0.00050591 0.000297861
466 0.000514848 0.000299236
468 0.00052405 0.000300621
470 0.000533528 0.000302016
472 0.000543293 0.00030342
474 0.000553358 0.000304834
476 0.000563733 0.000306258
478 0.000574434 0.000307692
480 0.000585472 0.000309136
482 0.000596863 0.000310591
484 0.000608623 0.000312055
486 0.000620766 0.00031353
488 0.000633311 0.000315016
490 0.000646276 0.000316512
492 0.000659678 0.000318019
494 0.00067354 0.000319536
496 0.000687881 0.000321064
498 0.000702724 0.000322604
500 0.000718093 0.000324154
502 0.000734014 0.000325716
504 0.000750514 0.000327289
506 0.00076762 0.000328873
508 0.000785363 0.000330469
510 0.000803775 0.000332077
512 0.000822891 0.000333696
514 0.000842747 0.000335327
516 0.000863381 0.000336971
518 0.000884835 0.000338626
520 0.000907154 0.000340293
522 0.000930384 0.000341973
524 0.000954575 0.000343666
526 0.000979782 0.000345371
528 0.00100606 0.000347088
530 0.00103348 0.000348819
532 0.00106209 0.000350562
534 0.00109198 0.000352319
536 0.00112322 0.000354089
538 0.0011559 0.000355872
540 0.00119009 0.000357669
542 0.0012259 0.000359479
544 0.00126342 0.000361303
546 0.00130279 0.000363141
548 0.0013441 0.000364993
550 0.00138749 0.000366859
552 0.00143312 0.00036874
554 0.00148112 0.000370635
556 0.00153167 0.000372545
558 0.00158495 0.00037447
560 0.00164117 0.000376409
562 0.00170053 0.000378364
564 0.00176328 0.000380334
566 0.00182968 0.000382319
568 0.00190001 0.00038432
570 0.00197459 0.000386336
572 0.00205377 0.000388369
574 0.00213793 0.000390418
576 0.0022275 0.000392482
578 0.00232294 0.000394564
580 0.00242477 0.000396662
582 0.00253358 0.000398776
584 0.00265 0.000400908
586 0.00277476 0.000403057
588 0.00290867 0.000405223
590 0.00305262 0.000407406
592 0.00320764 0.000409608
594 0.00337487 0.000411827
596 0.00355562 0.000414064
598 0.00375135 0.00041632
600 0.00396374 0.000418594
602 0.00419469 0.000420886
604 0.0044464 0.000423198
606 0.00472138 0.000425529
608 0.00502251 0.000427879
610 0.00535314 0.000430248
612 0.00571714 0.000432637
614 0.00611902 0.000435047
616 0.00656407 0.000437476
618 0.00705846 0.000439926
620 0.0076095 0.000442396
622 0.00822581 0.000444887
624 0.00891763 0.0004474
626 0.00969716 0.000449933
628 0.010579 0.000452489
630 0.0115807 0.000455066
632 0.0127234 0.000457665
634 0.0140326 0.000460286
636 0.015539 0.000462931
638 0.0172798 0.000465598
640 0.0192996 0.000468288
642 0.0216517 0.000471001
644 0.0243988 0.000473738
646 0.0276126 0.000476499
648 0.0313719 0.000479284
650 0.0357557 0.000482094
652 0.04083 0.000484928
654 0.0466223 0.000487788
656 0.0530795 0.000490673
658 0.0600079 0.000493583
660 0.0670071 0.00049652
662 0.0734324 0.000499483
664 0.0784482 0.000502472
666 0.0812226 0.000505488
668 0.0812227 0.000508532
670 0.0784488 0.000511603
672 0.0734334 0.000514702
674 0.0670085 0.000517829
676 0.0600096 0.000520985
678 0.0530816 0.00052417
680 0.0466248 0.000527384
682 0.0408328 0.000530628
684 0.0357589 0.000533902
686 0.0313755 0.000537206
688 0.0276166 0.000540541
690 0.0244032 0.000543907
692 0.0216565 0.000547304
694 0.0193047 0.000550734
696 0.0172853 0.000554195
698 0.0155449 0.00055769
700 0.0140389 0.000561218
702 0.0127301 0.000564779
704 0.0115877 0.000568374
706 0.0105864 0.000572004
708 0.00970492 0.000575668
710 0.00892577 0.000579368
712 0.00823433 0.000583104
714 0.0076184 0.000586876
716 0.00706774 0.000590685
718 0.00657373 0.00059453
720 0.00612906 0.000598414
722 0.00572756 0.000602335
724 0.00536394 0.000606296
726 0.0050337 0.000610295
728 0.00473295 0.000614334
730 0.00445835 0.000618414
732 0.00420702 0.000622534
734 0.00397645 0.000626696
736 0.00376444 0.000630899
738 0.00356909 0.000635145
740 0.00338873 0.000639433
742 0.00322188 0.000643766
744 0.00306724 0.000648142
746 0.00292367 0.000652564
748 0.00279015 0.00065703
750 0.00266578 0.000661543
752 0.00254974 0.000666102
754 0.00244131 0.000670709
756 0.00233987 0.000675363
758 0.00224481 0.000680066
760 0.00215563 0.000684819
762 0.00207185 0.000689621
764 0.00199306 0.000694474
766 0.00191886 0.000699379
768 0.00184891 0.000704336
770 0.0017829 0.000709345
772 0.00172054 0.000714408
774 0.00166157 0.000719526
776 0.00160574 0.000724698
778 0.00155285 0.000729927
780 0.00150268 0.000735212
782 0.00145507 0.000740555
784 0.00140984 0.000745957
786 0.00136683 0.000751418
788 0.00132591 0.000756939
790 0.00128693 0.000762521
792 0.0012498 0.000768165
794 0.00121438 0.000773871
796 0.00118058 0.000779642
798 0.0011483 0.000785477
800 0.00111745 0.000791379
802 0.00108796 0.000797346
804 0.00105973 0.000803382
806 0.00103271 0.000809486
808 0.00100682 0.000815661
810 0.000982012 0.000821906
812 0.000958215 0.000828223
814 0.000935381 0.000834613
816 0.000913459 0.000841077
818 0.000892401 0.000847617
820 0.000872164 0.000854234
822 0.000852706 0.000860928
824 0.000833988 0.000867701
826 0.000815975 0.000874554
828 0.000798631 0.000881489
830 0.000781924 0.000888506
832 0.000765825 0.000895608
834 0.000750305 0.000902795
836 0.000735337 0.000910069
838 0.000720896 0.000917431
840 0.000706957 0.000924883
842 0.000693499 0.000932426
844 0.0006805 0.000940062
846 0.00066794 0.000947791
848 0.0006558 0.000955617
850 0.000644062 0.00096354
852 0.000632709 0.000971561
854 0.000621724 0.000979684
856 0.000611093 0.000987908
858 0.000600801 0.000996236
860 0.000590835 0.00100467
862 0.00058118 0.00101321
864 0.000571824 0.00102186
866 0.000562757 0.00103063
868 0.000553966 0.0010395
870 0.000545441 0.00104849
872 0.000537172 0.0010576
874 0.000529148 0.00106683
876 0.000521362 0.00107617
878 0.000513803 0.00108565
880 0.000506464 0.00109524
882 0.000499336 0.00110497
884 0.000492412 0.00111482
886 0.000485685 0.00112481
888 0.000479147 0.00113493
890 0.000472793 0.00114519
892 0.000466615 0.00115559
894 0.000460607 0.00116613
896 0.000454763 0.00117682
898 0.000449079 0.00118765
900 0.000443549 0.00119863
902 0.000438167 0.00120977
904 0.000432928 0.00122106
906 0.000427829 0.00123251
908 0.000422864 0.00124412
910 0.000418029 0.0012559
912 0.000413319 0.00126785
914 0.000408732 0.00127997
916 0.000404263 0.00129226
918 0.000399908 0.00130473
920 0.000395665 0.00131738
922 0.000391528 0.00133021
924 0.000387496 0.00134324
926 0.000383565 0.00135645
928 0.000379732 0.00136986
930 0.000375994 0.00138347
932 0.000372348 0.00139729
934 0.000368793 0.00141131
936 0.000365324 0.00142555
938 0.000361939 0.00144
940 0.000358637 0.00145467
942 0.000355415 0.00146957
944 0.00035227 0.0014847
946 0.000349201 0.00150006
948 0.000346205 0.00151566
950 0.00034328 0.00153151
952 0.000340425 0.0015476
954 0.000337637 0.00156396
956 0.000334915 0.00158057
958 0.000332257 0.00159744
960 0.000329661 0.00161459
962 0.000327126 0.00163202
964 0.00032465 0.00164973
966 0.000322231 0.00166773
968 0.000319869 0.00168602
970 0.000317561 0.00170462
972 0.000315307 0.00172353
974 0.000313104 0.00174275
976 0.000310952 0.0017623
978 0.00030885 0.00178218
980 0.000306796 0.00180239
982 0.000304788 0.00182295
984 0.000302827 0.00184387
986 0.000300911 0.00186515
988 0.000299038 0.00188679
990 0.000297208 0.00190882
992 0.00029542 0.00193123
994 0.000293672 0.00195404
996 0.000291965 0.00197726
998 0.000290296 0.00200089
1000 0.000288665 0.00202495
1002 0.000287072 0.00204944
1004 0.000285515 0.00207438
1006 0.000283993 0.00209978
1008 0.000282506 0.00212565
1010 0.000281054 0.002152
1012 0.000279634 0.00217884
1014 0.000278247 0.00220619
1016 0.000276892 0.00223405
1018 0.000275568 0.00226244
1020 0.000274275 0.00229138
1022 0.000273011 0.00232088
1024 0.000271777 0.00235095
1026 0.000270572 0.00238161
1028 0.000269394 0.00241287
1030 0.000268245 0.00244475
1032 0.000267122 0.00247726
1034 0.000266025 0.00251043
1036 0.000264955 0.00254427
1038 0.00026391 0.0025788
1040 0.00026289 0.00261403
1042 0.000261894 0.00264999
1044 0.000260923 0.0026867
1046 0.000259974 0.00272417
1048 0.000259049 0.00276243
1050 0.000258147 0.0028015
1052 0.000257267 0.00284141
1054 0.000256409 0.00288218
1056 0.000255572 0.00292382
1058 0.000254756 0.00296638
1060 0.000253961 0.00300987
1062 0.000253186 0.00305433
1064 0.000252431 0.00309977
1066 0.000251696 0.00314624
1068 0.00025098 0.00319375
1070 0.000250283 0.00324236
1072 0.000249605 0.00329207
1074 0.000248945 0.00334294
1076 0.000248303 0.003395
1078 0.000247679 0.00344828
1080 0.000247072 0.00350282
1082 0.000246482 0.00355866
1084 0.000245909 0.00361585
1086 0.000245353 0.00367443
1088 0.000244813 0.00373444
1090 0.000244289 0.00379593
1092 0.000243781 0.00385895
1094 0.000243289 0.00392355
1096 0.000242812 0.00398979
1098 0.00024235 0.00405771
1100 0.000241903 0.00412738
1102 0.000241471 0.00419886
1104 0.000241053 0.00427221
1106 0.000240649 0.00434749
1108 0.00024026 0.00442478
1110 0.000239884 0.00450414
1112 0.000239522 0.00458566
1114 0.000239174 0.00466941
1116 0.000238838 0.00475546
1118 0.000238516 0.00484392
1120 0.000238207 0.00493486
1122 0.000237911 0.00502838
1124 0.000237627 0.00512458
1126 0.000237356 0.00522357
1128 0.000237097 0.00532544
1130 0.00023685 0.00543032
1132 0.000236615 0.00553833
1134 0.000236392 0.00564958
1136 0.000236181 0.00576421
1138 0.000235981 0.00588235
1140 0.000235793 0.00600416
1142 0.000235616 0.00612979
1144 0.00023545 0.00625939
1146 0.000235295 0.00639314
1148 0.000235151 0.0065312
1150 0.000235018 0.00667379
1152 0.000234896 0.00682108
1154 0.000234784 0.00697328
1156 0.000234683 0.00713063
1158 0.000234591 0.00729335
1160 0.000234511 0.0074617
1162 0.00023444 0.00763592
1164 0.000234379 0.0078163
1166 0.000234328 0.00800313
1168 0.000234287 0.00819672
1170 0.000234256 0.0083974
1172 0.000234235 0.00860552
1174 0.000234223 0.00882145
1176 0.00023422 0.00904559
1178 0.000234227 0.00927835
1180 0.000234243 0.00952018
1182 0.000234268 0.00977156
1184 0.000234303 0.010033
1186 0.000234347 0.010305
1188 0.000234399 0.0105882
1190 0.000234461 0.0108832
1192 0.000234531 0.0111907
1194 0.00023461 0.0115113
1196 0.000234698 0.0118458
1198 0.000234795 0.0121951
1200 0.0002349 0.01256
1202 0.000235014 0.0129414
1204 0.000235136 0.0133404
1206 0.000235266 0.0137581
1208 0.000235405 0.0141956
1210 0.000235553 0.0146542
1212 0.000235708 0.0151352
1214 0.000235872 0.0156402
1216 0.000236044 0.0161708
1218 0.000236224 0.0167286
1220 0.000236412 0.0173157
1222 0.000236608 0.017934
1224 0.000236812 0.0185858
1226 0.000237024 0.0192736
1228 0.000237244 0.02
1230 0.000237471 0.020768
1232 0.000237707 0.0215807
1234 0.00023795 0.0224417
1236 0.000238201 0.0233548
1238 0.00023846 0.0243243
1240 0.000238726 0.025355
1242 0.000239 0.0264519
1244 0.000239282 0.0276209
1246 0.000239571 0.0288684
1248 0.000239868 0.0302013
1250 0.000240173 0.0316278
1252 0.000240484 0.0331565
1254 0.000240804 0.0347974
1256 0.00024113 0.0365616
1258 0.000241465 0.0384615
1260 0.000241806 0.0405113
1262 0.000242155 0.0427269
1264 0.000242512 0.0451264
1266 0.000242875 0.0477302
1268 0.000243246 0.0505618
1270 0.000243625 0.0536481
1272 0.00024401 0.0570198
1274 0.000244403 0.0607124
1276 0.000244804 0.0647668
1278 0.000245211 0.0692308
1280 0.000245626 0.0741595
1282 0.000246048 0.0796178
1284 0.000246477 0.0856816
1286 0.000246913 0.0924404
1288 0.000247357 0.1
1290 0.000247808 0.108486
1292 0.000248266 0.118048
1294 0.000248731 0.128866
1296 0.000249204 0.141154
1298 0.000249684 0.155172
1300 0.00025017 0.171233
1302 0.000250665 0.189713
1304 0.000251166 0.211069
1306 0.000251674 0.235849
1308 0.00025219 0.264706
1310 0.000252713 0.298408
1312 0.000253243 0.337838
1314 0.00025378 0.383959
1316 0.000254325 0.437743
1318 0.000254876 0.5
1320 0.000255435 0.571066
1322 0.000256001 0.650289
1324 0.000256575 0.735294
1326 0.000257155 0.821168
1328 0.000257743 0.9
1330 0.000258338 0.961538
1332 0.000258941 0.995575
1334 0.00025955 0.995575
1336 0.000260167 0.961538
1338 0.000260792 0.9
1340 0.000261423 0.821168
1342 0.000262062 0.735294
1344 0.000262709 0.650289
1346 0.000263363 0.571066
1348 0.000264024 0.5
1350 0.000264692 0.437743
1352 0.000265368 0.383959
1354 0.000266052 0.337838
1356 0.000266743 0.298408
1358 0.000267441 0.264706
1360 0.000268147 0.235849
1362 0.000268861 0.211069
1364 0.000269582 0.189713
1366 0.00027031 0.171233
1368 0.000271047 0.155172
1370 0.000271791 0.141154
1372 0.000272542 0.128866
1374 0.000273302 0.118048
1376 0.000274069 0.108486
1378 0.000274844 0.1
1380 0.000275626 0.0924404
1382 0.000276417 0.0856816
1384 0.000277215 0.0796178
1386 0.000278021 0.0741595
1388 0.000278835 0.0692308
1390 0.000279657 0.0647668
1392 0.000280487 0.0607124
1394 0.000281325 0.0570198
1396 0.000282171 0.0536481
1398 0.000283025 0.0505618
1400 0.000283888 0.0477302
1402 0.000284758 0.0451264
1404 0.000285637 0.0427269
1406 0.000286524 0.0405113
1408 0.000287419 0.0384615
1410 0.000288323 0.0365616
1412 0.000289235 0.0347974
1414 0.000290155 0.0331565
1416 0.000291084 0.0316278
1418 0.000292022 0.0302013
1420 0.000292968 0.0288684
1422 0.000293922 0.0276209
1424 0.000294885 0.0264519
1426 0.000295857 0.025355
1428 0.000296838 0.0243243
1430 0.000297828 0.0233548
1432 0.000298826 0.0224417
1434 0.000299833 0.0215807
1436 0.000300849 0.020768
1438 0.000301875 0.02
1440 0.000302909 0.0192736
1442 0.000303953 0.0185858
1444 0.000305005 0.017934
1446 0.000306067 0.0173157
1448 0.000307138 0.0167286
1450 0.000308219 0.0161708
1452 0.000309309 0.0156402
1454 0.000310409 0.0151352
1456 0.000311518 0.0146542
1458 0.000312636 0.0141956
1460 0.000313765 0.0137581
1462 0.000314903 0.0133404
1464 0.000316051 0.0129414
1466 0.000317209 0.01256
1468 0.000318376 0.0121951
1470 0.000319554 0.0118458
1472 0.000320742 0.0115113
1474 0.00032194 0.0111907
1476 0.000323149 0.0108832
1478 0.000324367 0.0105882
1480 0.000325596 0.010305
1482 0.000326836 0.010033
1484 0.000328086 0.00977156
1486 0.000329346 0.00952018
1488 0.000330618 0.00927835
1490 0.0003319 0.00904559
1492 0.000333193 0.00882145
1494 0.000334497 0.00860552
1496 0.000335812 0.0083974
1498 0.000337138 0.00819672
1500 0.000338475 0.00800313
1502 0.000339824 0.0078163
1504 0.000341184 0.00763592
1506 0.000342555 0.0074617
1508 0.000343938 0.00729335
1510 0.000345333 0.00713063
1512 0.000346739 0.00697328
1514 0.000348158 0.00682108
1516 0.000349588 0.00667379
1518 0.00035103 0.0065312
1520 0.000352485 0.00639314
1522 0.000353951 0.00625939
1524 0.00035543 0.00612979
1526 0.000356922 0.00600416
1528 0.000358426 0.00588235
1530 0.000359943 0.00576421
1532 0.000361472 0.00564958
1534 0.000363015 0.00553833
1536 0.00036457 0.00543032
1538 0.000366139 0.00532544
1540 0.000367721 0.00522357
1542 0.000369316 0.00512458
1544 0.000370924 0.00502838
1546 0.000372547 0.00493486
1548 0.000374182 0.00484392
1550 0.000375832 0.00475546
1552 0.000377496 0.00466941
1554 0.000379174 0.00458566
1556 0.000380866 0.00450414
1558 0.000382572 0.00442478
1560 0.000384293 0.00434749
1562 0.000386028 0.00427221
1564 0.000387778 0.00419886
1566 0.000389543 0.00412738
1568 0.000391323 0.00405771
1570 0.000393119 0.00398979
1572 0.000394929 0.00392355
1574 0.000396755 0.00385895
1576 0.000398597 0.00379593
1578 0.000400454 0.00373444
1580 0.000402327 0.00367443
1582 0.000404217 0.00361585
1584 0.000406122 0.00355866
1586 0.000408044 0.00350282
1588 0.000409982 0.00344828
1590 0.000411938 0.003395
1592 0.00041391 0.00334294
1594 0.000415899 0.00329207
1596 0.000417905 0.00324236
1598 0.000419928 0.00319375
1600 0.000421969 0.00314624
1602 0.000424028 0.00309977
1604 0.000426105 0.00305433
1606 0.0004282 0.00300987
1608 0.000430313 0.00296638
1610 0.000432444 0.00292382
1612 0.000434594 0.00288218
1614 0.000436763 0.00284141
1616 0.000438951 0.0028015
1618 0.000441158 0.00276243
1620 0.000443385 0.00272417
1622 0.000445631 0.0026867
1624 0.000447897 0.00264999
1626 0.000450183 0.00261403
1628 0.00045249 0.0025788
1630 0.000454816 0.00254427
1632 0.000457164 0.00251043
1634 0.000459532 0.00247726
1636 0.000461922 0.00244475
1638 0.000464333 0.00241287
1640 0.000466765 0.00238161
1642 0.00046922 0.00235095
1644 0.000471696 0.00232088
1646 0.000474195 0.00229138
1648 0.000476716 0.00226244
1650 0.00047926 0.00223405
1652 0.000481827 0.00220619
1654 0.000484418 0.00217884
1656 0.000487032 0.002152
1658 0.00048967 0.00212565
1660 0.000492332 0.00209978
1662 0.000495018 0.00207438
1664 0.000497729 0.00204944
1666 0.000500465 0.00202495
1668 0.000503226 0.00200089
1670 0.000506013 0.00197726
1672 0.000508825 0.00195404
1674 0.000511664 0.00193123
1676 0.000514529 0.00190882
1678 0.00051742 0.00188679
1680 0.000520339 0.00186515
1682 0.000523285 0.00184387
1684 0.000526259 0.00182295
1686 0.00052926 0.00180239
1688 0.00053229 0.00178218
1690 0.000535349 0.0017623
1692 0.000538436 0.00174275
1694 0.000541553 0.00172353
1696 0.0005447 0.00170462
1698 0.000547876 0.00168602
1700 0.000551083 0.00166773
1702 0.000554321 0.00164973
1704 0.00055759 0.00163202
1706 0.00056089 0.00161459
1708 0.000564223 0.00159744
1710 0.000567588 0.00158057
1712 0.000570985 0.00156396
1714 0.000574415 0.0015476
1716 0.000577879 0.00153151
1718 0.000581377 0.00151566
1720 0.00058491 0.00150006
1722 0.000588477 0.0014847
1724 0.000592079 0.00146957
1726 0.000595717 0.00145467
1728 0.000599391 0.00144
1730 0.000603102 0.00142555
1732 0.000606849 0.00141131
1734 0.000610635 0.00139729
1736 0.000614458 0.00138347
1738 0.00061832 0.00136986
1740 0.000622221 0.00135645
1742 0.000626161 0.00134324
1744 0.000630141 0.00133021
1746 0.000634162 0.00131738
1748 0.000638224 0.00130473
1750 0.000642328 0.00129226
1752 0.000646474 0.00127997
1754 0.000650662 0.00126785
1756 0.000654894 0.0012559
1758 0.00065917 0.00124412
1760 0.00066349 0.00123251
1762 0.000667855 0.00122106
1764 0.000672266 0.00120977
1766 0.000676723 0.00119863
1768 0.000681228 0.00118765
1770 0.000685779 0.00117682
1772 0.000690379 0.00116613
1774 0.000695028 0.00115559
1776 0.000699727 0.00114519
1778 0.000704476 0.00113493
1780 0.000709275 0.00112481
1782 0.000714127 0.00111482
1784 0.000719031 0.00110497
1786 0.000723988 0.00109524
1788 0.000728999 0.00108565
1790 0.000734064 0.00107617
1792 0.000739185 0.00106683
1794 0.000744363 0.0010576
1796 0.000749597 0.00104849
1798 0.000754889 0.0010395
1800 0.00076024 0.00103063
1802 0.000765651 0.00102186
1804 0.000771121 0.00101321
1806 0.000776654 0.00100467
1808 0.000782248 0.000996236
1810 0.000787906 0.000987908
1812 0.000793627 0.000979684
1814 0.000799414 0.000971561
1816 0.000805267 0.00096354
1818 0.000811186 0.000955617
1820 0.000817174 0.000947791
1822 0.000823231 0.000940062
1824 0.000829358 0.000932426
1826 0.000835555 0.000924883
1828 0.000841826 0.000917431
1830 0.000848169 0.000910069
1832 0.000854587 0.000902795
1834 0.00086108 0.000895608
1836 0.000867651 0.000888506
1838 0.000874299 0.000881489
1840 0.000881027 0.000874554
1842 0.000887834 0.000867701
1844 0.000894724 0.000860928
1846 0.000901697 0.000854234
1848 0.000908754 0.000847617
1850 0.000915897 0.000841077
1852 0.000923126 0.000834613
1854 0.000930445 0.000828223
1856 0.000937853 0.000821906
1858 0.000945352 0.000815661
1860 0.000952944 0.000809486
1862 0.000960631 0.000803382
1864 0.000968414 0.000797346
1866 0.000976294 0.000791379
1868 0.000984273 0.000785477
1870 0.000992353 0.000779642
1872 0.00100054 0.000773871
1874 0.00100882 0.000768165
1876 0.00101721 0.000762521
1878 0.00102572 0.000756939
1880 0.00103432 0.000751418
1882 0.00104305 0.000745957
1884 0.00105188 0.000740555
1886 0.00106083 0.000735212
1888 0.0010699 0.000729927
1890 0.00107908 0.000724698
1892 0.00108839 0.000719526
1894 0.00109782 0.000714408
1896 0.00110738 0.000709345
1898 0.00111707 0.000704336
1900 0.00112688 0.000699379
1902 0.00113683 0.000694474
1904 0.00114691 0.000689621
1906 0.00115713 0.000684819
1908 0.00116749 0.000680066
1910 0.001178 0.000675363
1912 0.00118864 0.000670709
1914 0.00119944 0.000666102
1916 0.00121039 0.000661543
1918 0.00122148 0.00065703
1920 0.00123274 0.000652564
1922 0.00124415 0.000648142
1924 0.00125573 0.000643766
1926 0.00126747 0.000639433
1928 0.00127938 0.000635145
1930 0.00129146 0.000630899
1932 0.00130372 0.000626696
1934 0.00131615 0.000622534
1936 0.00132876 0.000618414
1938 0.00134156 0.000614334
1940 0.00135455 0.000610295
1942 0.00136773 0.000606296
1944 0.00138111 0.000602335
1946 0.00139468 0.000598414
1948 0.00140846 0.00059453
1950 0.00142245 0.000590685
1952 0.00143665 0.000586876
1954 0.00145107 0.000583104
1956 0.00146571 0.000579368
1958 0.00148057 0.000575668
1960 0.00149567 0.000572004
1962 0.00151099 0.000568374
1964 0.00152656 0.000564779
1966 0.00154237 0.000561218
1968 0.00155844 0.00055769
1970 0.00157476 0.000554195
1972 0.00159133 0.000550734
1974 0.00160818 0.000547304
1976 0.00162529 0.000543907
1978 0.00164269 0.000540541
1980 0.00166037 0.000537206
1982 0.00167833 0.000533902
1984 0.0016966 0.000530628
1986 0.00171516 0.000527384
1988 0.00173404 0.00052417
1990 0.00175323 0.000520985
1992 0.00177275 0.000517829
1994 0.00179259 0.000514702
1996 0.00181277 0.000511603
1998 0.0018333 0.000508532
2000 0.00185419 0.000505488
2002 0.00187543 0.000502472
2004 0.00189705 0.000499483
2006 0.00191904 0.00049652
2008 0.00194143 0.000493583
2010 0.00196421 0.000490673
2012 0.00198739 0.000487788
2014 0.002011 0.000484928
2016 0.00203502 0.000482094
2018 0.00205949 0.000479284
2020 0.0020844 0.000476499
2022 0.00210977 0.000473738
2024 0.00213561 0.000471001
2026 0.00216193 0.000468288
2028 0.00218874 0.000465598
2030 0.00221606 0.000462931
2032 0.00224389 0.000460286
2034 0.00227226 0.000457665
2036 0.00230117 0.000455066
2038 0.00233063 0.000452489
2040 0.00236068 0.000449933
2042 0.00239131 0.0004474
2044 0.00242254 0.000444887
2046 0.00245439 0.000442396
2048 0.00248688 0.000439926
2050 0.00252002 0.000437476
2052 0.00255383 0.000435047
2054 0.00258833 0.000432637
2056 0.00262353 0.000430248
2058 0.00265947 0.000427879
2060 0.00269614 0.000425529
2062 0.00273359 0.000423198
2064 0.00277183 0.000420886
2066 0.00281087 0.000418594
2068 0.00285075 0.00041632
2070 0.00289149 0.000414064
2072 0.00293311 0.000411827
2074 0.00297564 0.000409608
2076 0.00301911 0.000407406
2078 0.00306354 0.000405223
2080 0.00310896 0.000403057
2082 0.0031554 0.000400908
2084 0.00320289 0.000398776
2086 0.00325146 0.000396662
2088 0.00330115 0.000394564
2090 0.003352 0.000392482
2092 0.00340403 0.000390418
2094 0.00345728 0.000388369
2096 0.0035118 0.000386336
2098 0.00356762 0.00038432
2100 0.00362478 0.000382319
2102 0.00368333 0.000380334
2104 0.00374332 0.000378364
2106 0.00380479 0.000376409
2108 0.00386778 0.00037447
2110 0.00393236 0.000372545
2112 0.00399857 0.000370635
2114 0.00406647 0.00036874
2116 0.00413611 0.000366859
2118 0.00420757 0.000364993
2120 0.00428089 0.000363141
2122 0.00435615 0.000361303
2124 0.00443342 0.000359479
2126 0.00451276 0.000357669
2128 0.00459425 0.000355872
2130 0.00467797 0.000354089
2132 0.00476401 0.000352319
2134 0.00485244 0.000350562
2136 0.00494336 0.000348819
2138 0.00503686 0.000347088
2140 0.00513304 0.000345371
2142 0.005232 0.000343666
2144 0.00533385 0.000341973
2146 0.00543871 0.000340293
2148 0.00554669 0.000338626
2150 0.00565791 0.000336971
2152 0.00577252 0.000335327
2154 0.00589065 0.000333696
2156 0.00601243 0.000332077
2158 0.00613804 0.000330469
2160 0.00626762 0.000328873
2162 0.00640134 0.000327289
2164 0.00653939 0.000325716
2166 0.00668195 0.000324154
2168 0.00682921 0.000322604
2170 0.0069814 0.000321064
2172 0.00713873 0.000319536
2174 0.00730143 0.000318019
2176 0.00746975 0.000316512
2178 0.00764395 0.000315016
2180 0.00782431 0.00031353
2182 0.00801112 0.000312055
2184 0.00820469 0.000310591
2186 0.00840535 0.000309136
2188 0.00861345 0.000307692
2190 0.00882936 0.000306258
2192 0.00905347 0.000304834
2194 0.00928621 0.00030342
2196 0.00952803 0.000302016
2198 0.00977939 0.000300621
2200 0.0100408 0.000299236
2202 0.0103128 0.000297861
2204 0.010596 0.000296495
2206 0.010891 0.000295138
2208 0.0111984 0.000293791
2210 0.011519 0.000292453
2212 0.0118535 0.000291124
2214 0.0122028 0.000289804
2216 0.0125677 0.000288493
2218 0.0129491 0.000287191
2220 0.0133481 0.000285898
2222 0.0137657 0.000284613
2224 0.0142031 0.000283337
2226 0.0146617 0.00028207
2228 0.0151427 0.000280811
2230 0.0156477 0.000279561
2232 0.0161782 0.000278319
2234 0.0167361 0.000277085
2236 0.0173231 0.000275859
2238 0.0179414 0.000274641
2240 0.0185932 0.000273432
2242 0.019281 0.00027223
2244 0.0200074 0.000271037
2246 0.0207753 0.000269851
2248 0.021588 0.000268673
2250 0.022449 0.000267502
2252 0.0233621 0.00026634
2254 0.0243316 0.000265184
2256 0.0253622 0.000264037
2258 0.0264592 0.000262897
2260 0.0276281 0.000261764
2262 0.0288756 0.000260638
2264 0.0302085 0.00025952
2266 0.0316349 0.000258409
2268 0.0331637 0.000257305
2270 0.0348045 0.000256208
2272 0.0365687 0.000255118
2274 0.0384686 0.000254035
2276 0.0405184 0.000252958
2278 0.042734 0.000251889
2280 0.0451334 0.000250827
2282 0.0477372 0.000249771
2284 0.0505688 0.000248722
2286 0.0536551 0.000247679
2288 0.0570267 0.000246643
2290 0.0607193 0.000245613
2292 0.0647738 0.00024459
2294 0.0692377 0.000243573
2296 0.0741664 0.000242563
2298 0.0796247 0.000241559
2300 0.0856885 0.000240561
2302 0.0924473 0.000239569
2304 0.100007 0.000238584
2306 0.108493 0.000237604
2308 0.118055 0.00023663
2310 0.128873 0.000235663
2312 0.141161 0.000234701
2314 0.155179 0.000233745
2316 0.17124 0.000232795
2318 0.18972 0.000231851
2320 0.211076 0.000230913
2322 0.235856 0.00022998
2324 0.264713 0.000229053
2326 0.298415 0.000228131
2328 0.337844 0.000227215
2330 0.383966 0.000226305
2332 0.43775 0.0002254
2334 0.500007 0.0002245
2336 0.571073 0.000223606
2338 0.650296 0.000222717
2340 0.735301 0.000221834
2342 0.821174 0.000220955
2344 0.900007 0.000220082
2346 0.961545 0.000219214
2348 0.995582 0.000218351
2350 0.995582 0.000217493
2352 0.961545 0.000216641
2354 0.900006 0.000215793
2356 0.821174 0.00021495
2358 0.735301 0.000214112
2360 0.650295 0.000213279
2362 0.571072 0.000212451
2364 0.500006 0.000211628
2366 0.43775 0.00021081
2368 0.383965 0.000209996
2370 0.337844 0.000209187
2372 0.298415 0.000208382
2374 0.264712 0.000207583
2376 0.235855 0.000206787
2378 0.211076 0.000205997
2380 0.18972 0.000205211
2382 0.171239 0.000204429
2384 0.155179 0.000203652
2386 0.141161 0.000202879
2388 0.128872 0.000202111
2390 0.118054 0.000201347
2392 0.108492 0.000200587
2394 0.100006 0.000199832
2396 0.0924466 0.000199081
2398 0.0856878 0.000198334
2400 0.0796239 0.000197591
2402 0.0741656 0.000196853
2404 0.0692368 0.000196118
2406 0.0647729 0.000195388
2408 0.0607184 0.000194662
2410 0.0570258 0.00019394
2412 0.0536541 0.000193222
2414 0.0505678 0.000192507
2416 0.0477362 0.000191797
2418 0.0451323 0.000191091
2420 0.0427329 0.000190389
2422 0.0405173 0.00018969
2424 0.0384675 0.000188995
2426 0.0365675 0.000188304
2428 0.0348033 0.000187617
2430 0.0331624 0.000186934
2432 0.0316337 0.000186254
2434 0.0302072 0.000185578
2436 0.0288742 0.000184906
2438 0.0276268 0.000184237
2440 0.0264577 0.000183572
2442 0.0253608 0.000182911
2444 0.0243301 0.000182253
2446 0.0233606 0.000181599
2448 0.0224474 0.000180948
2450 0.0215864 0.000180301
2452 0.0207737 0.000179657
2454 0.0200057 0.000179017
2456 0.0192793 0.00017838
2458 0.0185915 0.000177746
2460 0.0179397 0.000177116
2462 0.0173214 0.000176489
2464 0.0167343 0.000175866
2466 0.0161764 0.000175245
2468 0.0156459 0.000174628
2470 0.0151408 0.000174015
2472 0.0146598 0.000173404
2474 0.0142012 0.000172797
2476 0.0137637 0.000172193
2478 0.013346 0.000171592
2480 0.012947 0.000170994
2482 0.0125656 0.0001704
2484 0.0122007 0.000169808
2486 0.0118514 0.000169219
2488 0.0115168 0.000168634
2490 0.0111962 0.000168052
2492 0.0108887 0.000167472
2494 0.0105937 0.000166896
2496 0.0103105 0.000166322
2498 0.0100385 0.000165752
2500 0.00977702 0.000165184
2502 0.00952563 0.00016462
2504 0.00928378 0.000164058
2506 0.00905101 0.000163499
2508 0.00882686 0.000162943
2510 0.00861092 0.00016239
2512 0.00840279 0.00016184
2514 0.0082021 0.000161292
2516 0.00800849 0.000160747
2518 0.00782165 0.000160205
2520 0.00764126 0.000159666
2522 0.00746703 0.000159129
2524 0.00729867 0.000158595
2526 0.00713594 0.000158064
2528 0.00697858 0.000157535
2530 0.00682636 0.00015701
2532 0.00667906 0.000156486
2534 0.00653647 0.000155966
2536 0.00639838 0.000155448
2538 0.00626463 0.000154932
2540 0.00613502 0.000154419
2542 0.00600938 0.000153909
2544 0.00588756 0.000153401
2546 0.0057694 0.000152895
2548 0.00565476 0.000152393
2550 0.0055435 0.000151892
2552 0.00543548 0.000151394
2554 0.00533059 0.000150899
2556 0.00522871 0.000150406
2558 0.00512971 0.000149915
2560 0.0050335 0.000149427
2562 0.00493997 0.000148941
2564 0.00484901 0.000148457
2566 0.00476055 0.000147976
2568 0.00467448 0.000147497
2570 0.00459072 0.000147021
2572 0.0045092 0.000146547
2574 0.00442982 0.000146075
2576 0.00435252 0.000145605
2578 0.00427723 0.000145138
2580 0.00420387 0.000144673
2582 0.00413238 0.00014421
2584 0.0040627 0.000143749
2586 0.00399477 0.000143291
2588 0.00392852 0.000142834
2590 0.00386391 0.00014238
2592 0.00380088 0.000141928
2594 0.00373938 0.000141479
2596 0.00367936 0.000141031
2598 0.00362077 0.000140585
2600 0.00356357 0.000140142
