lambda E133 E102
380 0 0.37
382 0 0.3943
384 0 0.4191
386 0 0.4442
388 0 0.4695
390 0 0.4949
392 0 0.5202
394 0 0.5453
396 0 0.57
398 0 0.5942
400 0 0.6176
402 0 0.6403
404 0 0.6619
406 0 0.6824
408 0 0.7016
410 0 0.7193
412 0 0.7354
414 0 0.7498
416 0 0.7624
418 0 0.773
420 0 0.7816
422 0 0.7881
424 0 0.7925
426 0 0.7947
428 0 0.7947
430 0 0.7925
432 0 0.7881
434 0 0.7816
436 0 0.773
438 0 0.7624
440 0 0.7498
442 0 0.7354
444 0 0.7193
446 0 0.7016
448 0 0.6824
450 0 0.6619
452 0 0.6403
454 0 0.6176
456 0 0.5942
458 0 0.57
460 0 0.5453
462 0 0.5202
464 0 0.4949
466 0 0.4695
468 0 0.4442
470 0 0.4191
472 0 0.3943
474 0 0.37
476 0 0.3462
478 0 0.323
480 0 0.3006
482 0 0.2789
484 0 0.2581
486 0 0.2382
488 0 0.2192
490 0 0.2011
492 0 0.1841
494 0 0.168
496 0 0.1529
498 0 0.1388
500 0 0.1256
502 0 0.1134
504 0 0.102
506 0 0.0916
508 0 0.082
510 0 0.0732
512 0 0.0651
514 0.0001 0.0578
516 0.0001 0.0512
518 0.0001 0.0452
520 0.0002 0.0398
522 0.0004 0.0349
524 0.0005 0.0306
526 0.0008 0.0267
528 0.0012 0.0232
530 0.0018 0.0202
532 0.0026 0.0175
534 0.0038 0.0151
536 0.0053 0.013
538 0.0074 0.0112
540 0.0101 0.0096
542 0.0136 0.0082
544 0.018 0.0069
546 0.0235 0.0059
548 0.0303 0.005
550 0.0385 0.0042
552 0.0481 0.0036
554 0.0593 0.003
556 0.0721 0.0025
558 0.0864 0.0021
560 0.1021 0.0017
562 0.119 0.0014
564 0.137 0.0012
566 0.1556 0.001
568 0.1746 0.0008
570 0.1936 0.0007
572 0.2124 0.0005
574 0.2308 0.0004
576 0.2484 0.0004
578 0.2654 0.0003
580 0.2816 0.0002
582 0.2973 0.0002
584 0.3127 0.0002
586 0.3281 0.0001
588 0.344 0.0001
590 0.3608 0.0001
592 0.3789 0.0001
594 0.3987 0.0001
596 0.4205 0
598 0.4445 0
600 0.4706 0
602 0.4989 0
604 0.529 0
606 0.5606 0
608 0.5931 0
610 0.626 0
612 0.6585 0
614 0.6899 0
616 0.7194 0
618 0.7462 0
620 0.7698 0
622 0.7894 0
624 0.8045 0
626 0.8147 0
628 0.8196 0
630 0.819 0
632 0.813 0
634 0.8016 0
636 0.7849 0
638 0.7633 0
640 0.7371 0
642 0.707 0
644 0.6734 0
646 0.637 0
648 0.5984 0
650 0.5583 0
652 0.5172 0
654 0.4759 0
656 0.4348 0
658 0.3945 0
660 0.3555 0
662 0.3181 0
664 0.2827 0
666 0.2495 0
668 0.2186 0
670 0.1903 0
672 0.1644 0
674 0.1412 0
676 0.1203 0
678 0.1018 0
680 0.0856 0
682 0.0715 0
684 0.0593 0
686 0.0488 0
688 0.0399 0
690 0.0324 0
692 0.0261 0
694 0.0209 0
696 0.0166 0
698 0.0131 0
700 0.0103 0
702 0.008 0
704 0.0062 0
706 0.0048 0
708 0.0036 0
710 0.0028 0
712 0.0021 0
714 0.0015 0
716 0.0011 0
718 0.0008 0
720 0.0006 0
722 0.0004 0
724 0.0003 0
726 0.0002 0
728 0.0002 0
730 0.0001 0
732 0.0001 0
734 0.0001 0
736 0 0
738 0 0
740 0 0
742 0 0
744 0 0
746 0 0
748 0 0
750 0 0
